"λ,n (nm)",n,"λ,k (nm)",k
250,2.29424,250,0.34362
255,2.28718,255,0.31948
260,2.27948,260,0.29655
265,2.27123,265,0.27477
270,2.26247,270,0.25411
275,2.25328,275,0.23452
280,2.24371,280,0.21597
285,2.23379,285,0.19842
290,2.22358,290,0.18182
295,2.21312,295,0.16615
300,2.20244,300,0.15138
305,2.19157,305,0.13746
310,2.18055,310,0.12438
315,2.1694,315,0.1121
320,2.15815,320,0.10061
325,2.14682,325,0.08986
330,2.13544,330,0.07985
335,2.12404,335,0.07054
340,2.11262,340,0.06192
345,2.10121,345,0.05397
350,2.08983,350,0.04666
355,2.07851,355,0.03999
360,2.06725,360,0.03393
365,2.05608,365,0.02847
370,2.04502,370,0.0236
375,2.03408,375,0.01929
380,2.0233,380,0.01555
385,2.01269,385,0.01234
390,2.00228,390,0.00967
395,1.99209,395,0.00752
400,1.98217,400,0.00588
405,1.97255,405,0.00474
410,1.96328,410,0.00408
415,1.95447,415,0.00391
420,1.94632,420,0.00406
425,1.9387,425,0.00422
430,1.93145,430,0.00439
435,1.9245,435,0.00456
440,1.91781,440,0.00473
445,1.91134,445,0.00491
450,1.90507,450,0.0051
455,1.89898,455,0.00528
460,1.89304,460,0.00548
465,1.88724,465,0.00568
470,1.88157,470,0.00588
475,1.87601,475,0.00609
480,1.87056,480,0.0063
485,1.8652,485,0.00651
490,1.85993,490,0.00674
495,1.85474,495,0.00696
500,1.84962,500,0.0072
505,1.84456,505,0.00743
510,1.83956,510,0.00768
515,1.83462,515,0.00793
520,1.82972,520,0.00818
525,1.82487,525,0.00844
530,1.82006,530,0.00871
535,1.81529,535,0.00898
540,1.81054,540,0.00926
545,1.80583,545,0.00954
550,1.80114,550,0.00983
555,1.79648,555,0.01013
560,1.79184,560,0.01043
565,1.78721,565,0.01074
570,1.7826,570,0.01105
575,1.778,575,0.01137
580,1.77341,580,0.0117
585,1.76883,585,0.01204
590,1.76426,590,0.01238
595,1.75969,595,0.01273
600,1.75512,600,0.01309
605,1.75056,605,0.01345
610,1.74599,610,0.01382
615,1.74142,615,0.0142
620,1.73685,620,0.01459
625,1.73228,625,0.01498
630,1.72769,630,0.01538
635,1.7231,635,0.01579
640,1.7185,640,0.01621
645,1.71389,645,0.01664
650,1.70927,650,0.01707
655,1.70464,655,0.01751
660,1.69999,660,0.01797
665,1.69533,665,0.01843
670,1.69065,670,0.0189
675,1.68596,675,0.01938
680,1.68124,680,0.01986
685,1.67651,685,0.02036
690,1.67176,690,0.02087
695,1.667,695,0.02138
700,1.6622,700,0.02191
705,1.65739,705,0.02244
710,1.65256,710,0.02299
715,1.6477,715,0.02355
720,1.64281,720,0.02411
725,1.6379,725,0.02469
730,1.63297,730,0.02528
735,1.62801,735,0.02588
740,1.62302,740,0.02649
745,1.618,745,0.02711
750,1.61296,750,0.02774
755,1.60788,755,0.02839
760,1.60278,760,0.02905
765,1.59764,765,0.02972
770,1.59248,770,0.0304
775,1.58728,775,0.03109
780,1.58204,780,0.0318
785,1.57678,785,0.03252
790,1.57148,790,0.03326
795,1.56614,795,0.034
800,1.56078,800,0.03476
805,1.55537,805,0.03554
810,1.54993,810,0.03633
815,1.54445,815,0.03714
820,1.53893,820,0.03795
825,1.53337,825,0.03879
830,1.52778,830,0.03964
835,1.52214,835,0.0405
840,1.51646,840,0.04139
845,1.51075,845,0.04229
850,1.50499,850,0.0432
855,1.49918,855,0.04413
860,1.49334,860,0.04508
865,1.48745,865,0.04605
870,1.48152,870,0.04704
875,1.47554,875,0.04804
880,1.46951,880,0.04906
885,1.46344,885,0.05011
890,1.45732,890,0.05117
895,1.45115,895,0.05225
900,1.44494,900,0.05336
905,1.43867,905,0.05448
910,1.43236,910,0.05563
915,1.42599,915,0.05679
920,1.41957,920,0.05799
925,1.4131,925,0.0592
930,1.40658,930,0.06044
935,1.4,935,0.0617
940,1.39337,940,0.06298
945,1.38668,945,0.0643
950,1.37993,950,0.06563
955,1.37313,955,0.067
960,1.36627,960,0.06839
965,1.35935,965,0.06981
970,1.35237,970,0.07126
975,1.34533,975,0.07274
980,1.33823,980,0.07424
985,1.33106,985,0.07578
990,1.32384,990,0.07735
995,1.31654,995,0.07896
1000,1.30918,1000,0.08059
1005,1.30176,1005,0.08227
1010,1.29427,1010,0.08397
1015,1.2867,1015,0.08572
1020,1.27907,1020,0.0875
1025,1.27137,1025,0.08932
1030,1.2636,1030,0.09118
1035,1.25575,1035,0.09308
1040,1.24783,1040,0.09502
1045,1.23983,1045,0.09701
1050,1.23175,1050,0.09904
1055,1.2236,1055,0.10112
1060,1.21537,1060,0.10324
1065,1.20706,1065,0.10542
1070,1.19867,1070,0.10765
1075,1.19019,1075,0.10992
1080,1.18163,1080,0.11226
1085,1.17298,1085,0.11465
1090,1.16425,1090,0.1171
1095,1.15542,1095,0.11961
1100,1.14651,1100,0.12218
1105,1.13751,1105,0.12482
1110,1.12841,1110,0.12752
1115,1.11922,1115,0.1303
1120,1.10993,1120,0.13314
1125,1.10054,1125,0.13607
1130,1.09105,1130,0.13907
1135,1.08146,1135,0.14215
1140,1.07177,1140,0.14532
1145,1.06198,1145,0.14858
1150,1.05208,1150,0.15193
1155,1.04207,1155,0.15538
1160,1.03196,1160,0.15893
1165,1.02173,1165,0.16258
1170,1.01139,1170,0.16634
1175,1.00094,1175,0.17022
1180,0.99038,1180,0.17421
1185,0.97969,1185,0.17834
1190,0.9689,1190,0.18259
1195,0.95798,1195,0.18698
1200,0.94694,1200,0.19152
1205,0.93579,1205,0.1962
1210,0.92451,1210,0.20105
1215,0.91312,1215,0.20606
1220,0.90161,1220,0.21125
1225,0.88997,1225,0.21662
1230,0.87822,1230,0.22218
1235,0.86635,1235,0.22795
1240,0.85437,1240,0.23393
1245,0.84228,1245,0.24014
1250,0.83007,1250,0.24658
1255,0.81777,1255,0.25327
1260,0.80536,1260,0.26022
1265,0.79286,1265,0.26744
1270,0.78028,1270,0.27494
1275,0.76762,1275,0.28275
1280,0.7549,1280,0.29086
1285,0.74212,1285,0.2993
1290,0.72931,1290,0.30808
1295,0.71647,1295,0.31722
1300,0.70363,1300,0.32671
1305,0.69081,1305,0.33658
1310,0.67802,1310,0.34683
1315,0.66529,1315,0.35747
1320,0.65265,1320,0.3685
1325,0.64013,1325,0.37994
1330,0.62775,1330,0.39177
1335,0.61554,1335,0.404
1340,0.60353,1340,0.41662
1345,0.59175,1345,0.42962
1350,0.58024,1350,0.44298
1355,0.56901,1355,0.45668
1360,0.55809,1360,0.47071
1365,0.54751,1365,0.48504
1370,0.53728,1370,0.49964
1375,0.52743,1375,0.51449
1380,0.51795,1380,0.52955
1385,0.50886,1385,0.5448
1390,0.50016,1390,0.5602
1395,0.49186,1395,0.57573
1400,0.48395,1400,0.59135
1405,0.47643,1405,0.60705
1410,0.46928,1410,0.62279
1415,0.46251,1415,0.63855
1420,0.45609,1420,0.65431
1425,0.45002,1425,0.67006
1430,0.44428,1430,0.68577
1435,0.43885,1435,0.70143
1440,0.43373,1440,0.71703
1445,0.4289,1445,0.73255
1450,0.42435,1450,0.748
1455,0.42006,1455,0.76335
1460,0.41601,1460,0.77861
1465,0.4122,1465,0.79377
1470,0.40862,1470,0.80883
1475,0.40524,1475,0.82377
1480,0.40206,1480,0.83861
1485,0.39907,1485,0.85333
1490,0.39626,1490,0.86794
1495,0.39361,1495,0.88244
1500,0.39113,1500,0.89682
1505,0.3888,1505,0.9111
1510,0.3866,1510,0.92526
1515,0.38455,1515,0.93931
1520,0.38262,1520,0.95325
1525,0.38081,1525,0.96708
1530,0.37912,1530,0.9808
1535,0.37754,1535,0.99442
1540,0.37606,1540,1.00793
1545,0.37468,1545,1.02134
1550,0.37339,1550,1.03466
1555,0.37219,1555,1.04787
1560,0.37108,1560,1.06098
1565,0.37005,1565,1.07401
1570,0.36909,1570,1.08693
1575,0.36821,1575,1.09977
1580,0.3674,1580,1.11252
1585,0.36666,1585,1.12518
1590,0.36597,1590,1.13776
1595,0.36536,1595,1.15025
1600,0.3648,1600,1.16266
1605,0.36429,1605,1.17499
1610,0.36385,1610,1.18724
1615,0.36345,1615,1.19941
1620,0.3631,1620,1.21151
1625,0.3628,1625,1.22354
1630,0.36255,1630,1.23549
1635,0.36234,1635,1.24737
1640,0.36217,1640,1.25918
1645,0.36205,1645,1.27093
1650,0.36196,1650,1.28261
1655,0.36191,1655,1.29422
1660,0.3619,1660,1.30577
1665,0.36193,1665,1.31726
1670,0.36198,1670,1.32868
1675,0.36207,1675,1.34005
1680,0.3622,1680,1.35136
1685,0.36235,1685,1.36261
1690,0.36254,1690,1.3738
1695,0.36275,1695,1.38494
1700,0.36299,1700,1.39602
1705,0.36326,1705,1.40705
1710,0.36355,1710,1.41803
1715,0.36387,1715,1.42896
1720,0.36422,1720,1.43983
1725,0.36458,1725,1.45066
1730,0.36498,1730,1.46144
1735,0.36539,1735,1.47217
1740,0.36583,1740,1.48286
1745,0.36629,1745,1.4935
1750,0.36677,1750,1.50409
1755,0.36727,1755,1.51464
1760,0.36779,1760,1.52514
1765,0.36833,1765,1.53561
1770,0.36888,1770,1.54603
1775,0.36946,1775,1.55641
1780,0.37005,1780,1.56675
1785,0.37067,1785,1.57705
1790,0.37129,1790,1.58731
1795,0.37194,1795,1.59753
1800,0.3726,1800,1.60772
1805,0.37328,1805,1.61787
1810,0.37397,1810,1.62798
1815,0.37468,1815,1.63805
1820,0.3754,1820,1.64809
1825,0.37614,1825,1.6581
1830,0.37689,1830,1.66807
1835,0.37766,1835,1.678
1840,0.37844,1840,1.68791
1845,0.37923,1845,1.69778
1850,0.38004,1850,1.70761
1855,0.38085,1855,1.71742
1860,0.38169,1860,1.7272
1865,0.38253,1865,1.73694
1870,0.38338,1870,1.74665
1875,0.38425,1875,1.75634
1880,0.38513,1880,1.76599
1885,0.38602,1885,1.77562
1890,0.38693,1890,1.78521
1895,0.38784,1895,1.79478
1900,0.38876,1900,1.80432
1905,0.3897,1905,1.81383
1910,0.39064,1910,1.82332
1915,0.3916,1915,1.83278
1920,0.39257,1920,1.84221
1925,0.39354,1925,1.85162
1930,0.39453,1930,1.861
1935,0.39552,1935,1.87036
1940,0.39653,1940,1.87969
1945,0.39754,1945,1.88899
1950,0.39857,1950,1.89827
1955,0.3996,1955,1.90753
1960,0.40064,1960,1.91677
1965,0.40169,1965,1.92598
1970,0.40275,1970,1.93517
1975,0.40382,1975,1.94433
1980,0.40489,1980,1.95347
1985,0.40598,1985,1.96259
1990,0.40707,1990,1.97169
1995,0.40817,1995,1.98077
2000,0.40928,2000,1.98982
